        f (GHz),             |S[1][1]| (dB),        arg(S[1][1]) (deg.)
 1.00000000e-01,        -8.326888646287e-02,        -1.707384138166e+01
 1.50000000e-01,        -1.995130576587e-01,        -2.609746963377e+01
 2.00000000e-01,        -3.869933273754e-01,        -3.572476853066e+01
 2.50000000e-01,        -6.750258038545e-01,        -4.618355666922e+01
 3.00000000e-01,        -1.107530346973e+00,        -5.770914621618e+01
 3.50000000e-01,        -1.746078839400e+00,        -7.052482567285e+01
 4.00000000e-01,        -2.669702751018e+00,        -8.481579847302e+01
 4.50000000e-01,        -3.967399792865e+00,        -1.007286574852e+02
 5.00000000e-01,        -5.720138469123e+00,        -1.184708689778e+02
 5.50000000e-01,        -7.968410073014e+00,        -1.386089823496e+02
 6.00000000e-01,        -1.063463904598e+01,        -1.625787445949e+02
 6.50000000e-01,        -1.329075284899e+01,        +1.672816649250e+02
 7.00000000e-01,        -1.489639215666e+01,        +1.313962449579e+02
 7.50000000e-01,        -1.484865488673e+01,        +9.802249621071e+01
 8.00000000e-01,        -1.401210309959e+01,        +7.328890489219e+01
 8.50000000e-01,        -1.320233946769e+01,        +5.581972311852e+01
 9.00000000e-01,        -1.266413901178e+01,        +4.301527057312e+01
 9.50000000e-01,        -1.241694384979e+01,        +3.327663929757e+01
 1.00000000e+00,        -1.243090948366e+01,        +2.579996166177e+01
 1.05000000e+00,        -1.267035721532e+01,        +2.025361491600e+01
 1.10000000e+00,        -1.309602992185e+01,        +1.660408491231e+01
 1.15000000e+00,        -1.365332330888e+01,        +1.501519473301e+01
 1.20000000e+00,        -1.425356222243e+01,        +1.572719001274e+01
 1.25000000e+00,        -1.475938673124e+01,        +1.881737441834e+01
 1.30000000e+00,        -1.500450171549e+01,        +2.383379618233e+01
 1.35000000e+00,        -1.487435667629e+01,        +2.962025125417e+01
 1.40000000e+00,        -1.438906277505e+01,        +3.477858753998e+01
 1.45000000e+00,        -1.368097351856e+01,        +3.842266595719e+01
 1.50000000e+00,        -1.289748690688e+01,        +4.040103482915e+01
 1.55000000e+00,        -1.213957093523e+01,        +4.100191483611e+01
 1.60000000e+00,        -1.145664582049e+01,        +4.063165670965e+01
 1.65000000e+00,        -1.086258966965e+01,        +3.965409453377e+01
 1.70000000e+00,        -1.035082171333e+01,        +3.834079874770e+01
 1.75000000e+00,        -9.904298646301e+00,        +3.686394547246e+01
 1.80000000e+00,        -9.502307813189e+00,        +3.530007467291e+01
 1.85000000e+00,        -9.126167031825e+00,        +3.363890182427e+01
 1.90000000e+00,        -8.764469411989e+00,        +3.180238244531e+01
 1.95000000e+00,        -8.416885989472e+00,        +2.967815815137e+01
 2.00000000e+00,        -8.094950545217e+00,        +2.716181162882e+01
 2.05000000e+00,        -7.819381796716e+00,        +2.419337459050e+01
 2.10000000e+00,        -7.615419475274e+00,        +2.077522359182e+01
 2.15000000e+00,        -7.508555376042e+00,        +1.696980935814e+01
 2.20000000e+00,        -7.522386932299e+00,        +1.288615954775e+01
 2.25000000e+00,        -7.679165352667e+00,        +8.668024243970e+00
 2.30000000e+00,        -8.002757054864e+00,        +4.498356124290e+00
 2.35000000e+00,        -8.522485957765e+00,        +6.400712638435e-01
 2.40000000e+00,        -9.273062572419e+00,        -2.460472316331e+00
 2.45000000e+00,        -1.027763597207e+01,        -3.985376843734e+00
 2.50000000e+00,        -1.148107952743e+01,        -2.541677440223e+00
 2.55000000e+00,        -1.258894084399e+01,        +3.455284831570e+00
 2.60000000e+00,        -1.300057318593e+01,        +1.328583713762e+01
 2.65000000e+00,        -1.246298805703e+01,        +2.197887041354e+01
 2.70000000e+00,        -1.154740327361e+01,        +2.607720431597e+01
 2.75000000e+00,        -1.080100716456e+01,        +2.699312096049e+01
 2.80000000e+00,        -1.027088537634e+01,        +2.734530693106e+01
 2.85000000e+00,        -9.695107841495e+00,        +2.798084993971e+01
 2.90000000e+00,        -8.924801560094e+00,        +2.737655050012e+01
 2.95000000e+00,        -8.175212635291e+00,        +2.411514485068e+01
 3.00000000e+00,        -7.731309550601e+00,        +1.888159323681e+01
 3.05000000e+00,        -7.665294385408e+00,        +1.335808794128e+01
 3.10000000e+00,        -7.861293425141e+00,        +8.774188040168e+00
 3.15000000e+00,        -8.141294857760e+00,        +5.357771802225e+00
 3.20000000e+00,        -8.388862632348e+00,        +2.475022456475e+00
 3.25000000e+00,        -8.607477072267e+00,        -7.218752292629e-01
 3.30000000e+00,        -8.881033391880e+00,        -4.732622772270e+00
 3.35000000e+00,        -9.309239254501e+00,        -9.653525666955e+00
 3.40000000e+00,        -9.983705221299e+00,        -1.538632259676e+01
 3.45000000e+00,        -1.100116053692e+01,        -2.180887342106e+01
 3.50000000e+00,        -1.249814409860e+01,        -2.886106404844e+01
 3.55000000e+00,        -1.472278033755e+01,        -3.663058445529e+01
 3.60000000e+00,        -1.825166929931e+01,        -4.569020977414e+01
 3.65000000e+00,        -2.511928094938e+01,        -6.007495722136e+01
 3.70000000e+00,        -3.329954711915e+01,        +1.612919847768e+02
 3.75000000e+00,        -2.073850156389e+01,        +1.265467300775e+02
 3.80000000e+00,        -1.568409262239e+01,        +1.161298993109e+02
 3.85000000e+00,        -1.259032335087e+01,        +1.081221548194e+02
 3.90000000e+00,        -1.042428480924e+01,        +1.010550345228e+02
 3.95000000e+00,        -8.808562436518e+00,        +9.459953395137e+01
 4.00000000e+00,        -7.558895952116e+00,        +8.864210692910e+01
 4.05000000e+00,        -6.569333274833e+00,        +8.312644245993e+01
 4.10000000e+00,        -5.772354970771e+00,        +7.801308748766e+01
 4.15000000e+00,        -5.121944088497e+00,        +7.326762909205e+01
 4.20000000e+00,        -4.585298370690e+00,        +6.885744823345e+01
 4.25000000e+00,        -4.138303307261e+00,        +6.475120368835e+01
 4.30000000e+00,        -3.762836858461e+00,        +6.091908625268e+01
 4.35000000e+00,        -3.445054095373e+00,        +5.733316798884e+01
 4.40000000e+00,        -3.174239346290e+00,        +5.396764032459e+01
 4.45000000e+00,        -2.942009174471e+00,        +5.079890788020e+01
 4.50000000e+00,        -2.741743736788e+00,        +4.780556249018e+01
 4.55000000e+00,        -2.568172805651e+00,        +4.496827433811e+01
 4.60000000e+00,        -2.417069691972e+00,        +4.226963336918e+01
 4.65000000e+00,        -2.285022152277e+00,        +3.969396603369e+01
 4.70000000e+00,        -2.169259179596e+00,        +3.722714446837e+01
 4.75000000e+00,        -2.067518926907e+00,        +3.485639884725e+01
 4.80000000e+00,        -1.977947260699e+00,        +3.257013899000e+01
 4.85000000e+00,        -1.899019361869e+00,        +3.035778813169e+01
 4.90000000e+00,        -1.829478839300e+00,        +2.820962967191e+01
 4.95000000e+00,        -1.768290282687e+00,        +2.611666640707e+01
 5.00000000e+00,        -1.714602238507e+00,        +2.407049095004e+01
 5.05000000e+00,        -1.667718368741e+00,        +2.206316556728e+01
 5.10000000e+00,        -1.627075128992e+00,        +2.008710938074e+01
 5.15000000e+00,        -1.592224739405e+00,        +1.813499069583e+01
 5.20000000e+00,        -1.562822559787e+00,        +1.619962206093e+01
 5.25000000e+00,        -1.538618250267e+00,        +1.427385548753e+01
 5.30000000e+00,        -1.519450324322e+00,        +1.235047502426e+01
 5.35000000e+00,        -1.505243901354e+00,        +1.042208354281e+01
 5.40000000e+00,        -1.496011658366e+00,        +8.480980120749e+00
 5.45000000e+00,        -1.491858181961e+00,        +6.519023745348e+00
 5.50000000e+00,        -1.492988152124e+00,        +4.527478151851e+00
 5.55000000e+00,        -1.499719072131e+00,        +2.496831364165e+00
 5.60000000e+00,        -1.512499626927e+00,        +4.165818092153e-01
 5.65000000e+00,        -1.531935251558e+00,        -1.725019434665e+00
 5.70000000e+00,        -1.558823189695e+00,        -3.941283848992e+00
 5.75000000e+00,        -1.594200322798e+00,        -6.247476061309e+00
 5.80000000e+00,        -1.639408511252e+00,        -8.661303671725e+00
 5.85000000e+00,        -1.696184357558e+00,        -1.120353842266e+01
 5.90000000e+00,        -1.766783570683e+00,        -1.389881228476e+01
 5.95000000e+00,        -1.854155109209e+00,        -1.677664810563e+01
 6.00000000e+00,        -1.962188027841e+00,        -1.987280717064e+01
 6.05000000e+00,        -2.096066110689e+00,        -2.323106847516e+01
 6.10000000e+00,        -2.262784679374e+00,        -2.690560189469e+01
 6.15000000e+00,        -2.471914923481e+00,        -3.096416956125e+01
 6.20000000e+00,        -2.736751166510e+00,        -3.549250829912e+01
 6.25000000e+00,        -3.076057978546e+00,        -4.060046668510e+01
 6.30000000e+00,        -3.516767472307e+00,        -4.643095300458e+01
 6.35000000e+00,        -4.098197126881e+00,        -5.317398658072e+01
 6.40000000e+00,        -4.878724855404e+00,        -6.109172242475e+01
 6.45000000e+00,        -5.946460604526e+00,        -7.057161959531e+01
 6.50000000e+00,        -7.436192169569e+00,        -8.226341413962e+01
 6.55000000e+00,        -9.552411577862e+00,        -9.749820383310e+01
 6.60000000e+00,        -1.254948193308e+01,        -1.197446212370e+02
 6.65000000e+00,        -1.605809659600e+01,        -1.586866630944e+02
 6.70000000e+00,        -1.626638502339e+01,        +1.440358544823e+02
 6.75000000e+00,        -1.310457056462e+01,        +1.047701509112e+02
 6.80000000e+00,        -1.043940513707e+01,        +8.247490423780e+01
 6.85000000e+00,        -8.678219376535e+00,        +6.738308256135e+01
 6.90000000e+00,        -7.575050170387e+00,        +5.605539211575e+01
 6.95000000e+00,        -6.923587666670e+00,        +4.728307731382e+01
 7.00000000e+00,        -6.571665238643e+00,        +4.056022618625e+01
 7.05000000e+00,        -6.397199298840e+00,        +3.556192486847e+01
 7.10000000e+00,        -6.305569809914e+00,        +3.191729839059e+01
 7.15000000e+00,        -6.242433864704e+00,        +2.919409496893e+01
 7.20000000e+00,        -6.194334042940e+00,        +2.704197230276e+01
 7.25000000e+00,        -6.166019392765e+00,        +2.529769782111e+01
 7.30000000e+00,        -6.155406347541e+00,        +2.393239256280e+01
 7.35000000e+00,        -6.146958947890e+00,        +2.290574861318e+01
 7.40000000e+00,        -6.128852517718e+00,        +2.206403161220e+01
 7.45000000e+00,        -6.117310508083e+00,        +2.123817078552e+01
 7.50000000e+00,        -6.146020317077e+00,        +2.048245806088e+01
 7.55000000e+00,        -6.220238666851e+00,        +2.007508166850e+01
 7.60000000e+00,        -6.302499474075e+00,        +2.021411845859e+01
 7.65000000e+00,        -6.346531327487e+00,        +2.086498144340e+01
 7.70000000e+00,        -6.315293786755e+00,        +2.185190796884e+01
 7.75000000e+00,        -6.184557700489e+00,        +2.284437885824e+01
 7.80000000e+00,        -5.970813784973e+00,        +2.341102016192e+01
 7.85000000e+00,        -5.732938839133e+00,        +2.331170187142e+01
 7.90000000e+00,        -5.532105272407e+00,        +2.260362803966e+01
 7.95000000e+00,        -5.411311549795e+00,        +2.153070518330e+01
 8.00000000e+00,        -5.382207904572e+00,        +2.049035118867e+01
 8.05000000e+00,        -5.393023684403e+00,        +1.980026022914e+01
 8.10000000e+00,        -5.368631138975e+00,        +1.911973974184e+01
 8.15000000e+00,        -5.360708909269e+00,        +1.758600670525e+01
 8.20000000e+00,        -5.577447117998e+00,        +1.503381585078e+01
